scenario	social change	social change	social change	social change	social change	social change	social change	current values	current values	current values	current values	current values	current values	current values	scenario2	scenario2	scenario2	scenario2	scenario2	scenario2	scenario2	scenario3	scenario3	scenario3	scenario3	scenario3	scenario3	scenario3	scenario_bas	scenario_bas	scenario_bas	scenario_bas	scenario_bas	scenario_bas	scenario_bas		
cohort	Gasoline	Diesel	Hybrid	Plug-in hybrid	Electric_FC	Natural Gas	Flex-fuel	Gasoline	Diesel	Hybrid	Plug-in hybrid	Electric_FC	Natural Gas	Flex-fuel	Gasoline	Diesel	Hybrid	Plug-in hybrid	Electric_FC	Natural Gas	Flex-fuel	Gasoline	Diesel	Hybrid	Plug-in hybrid	Electric_FC	Natural Gas	Flex-fuel	Gasoline	Diesel	Hybrid	Plug-in hybrid	Electric_FC	Natural Gas	Flex-fuel		
1985	1113	1113						1113.06	1113.06	0	0	0	0	0	1113	1113						1113	1113						1113	1113							
1986	1134	1134						1133.6088	1133.6088	0	0	0	0	0	1134	1134						1134	1134						1134	1134							
1987	1154	1154						1154.1576	1154.1576	0	0	0	0	0	1154	1154						1154	1154						1154	1154							
1988	1175	1175						1174.7064	1174.7064	0	0	0	0	0	1175	1175						1175	1175						1175	1175							
1989	1195	1195						1195.2552	1195.2552	0	0	0	0	0	1195	1195						1195	1195						1195	1195							
1990	1216	1216						1215.804	1215.804	0	0	0	0	0	1216	1216						1216	1216						1216	1216							
1991	1236	1236						1236.3528	1236.3528	0	0	0	0	0	1236	1236						1236	1236						1236	1236							
1992	1257	1257						1256.9016	1256.9016	0	0	0	0	0	1257	1257						1257	1257						1257	1257							
1993	1277	1277						1277.4504	1277.4504	0	0	0	0	0	1277	1277						1277	1277						1277	1277							
1994	1298	1298						1297.9992	1297.9992	0	0	0	0	0	1298	1298						1298	1298						1298	1298							
1995	1319	1319						1318.548	1318.548	0	0	0	0	0	1319	1319						1319	1319						1319	1319							
1996	1339	1339						1339.0968	1339.0968	0	0	0	0	0	1339	1339						1339	1339						1339	1339							
1997	1360	1360						1359.6456	1359.6456	0	0	0	0	0	1360	1360						1360	1360						1360	1360							
1998	1380	1380						1380.1944	1380.1944	0	0	0	0	0	1380	1380						1380	1380						1380	1380							
1999	1401	1401						1400.7432	1400.7432	0	0	0	0	0	1401	1401						1401	1401						1401	1401							
2000	1427	1427						1427	1427	0	0	0	0	0	1427	1427						1427	1427						1427	1427							
2001	1427	1427				1427		1427	1427	0	0	0	1427	0	1427	1427		0	0	1427	0	1427	1427		0	0	1427	0	1427	1427		0	0	1427	0		
2002	1442	1442				1442		1442	1442	0	0	0	1442	0	1442	1442		0	0	1442	0	1442	1442		0	0	1442	0	1442	1442		0	0	1442	0		
2003	1474	1474				1474	1474	1474	1474	0	0	0	1474	1474	1474	1474		0	0	1474	1474	1474	1474		0	0	1474	1474	1474	1474		0	0	1474	1474		
2004	1490	1490				1490	1490	1490	1490	0	0	0	1490	1490	1490	1490		0	0	1490	1490	1490	1490		0	0	1490	1490	1490	1490		0	0	1490	1490		
2005	1498	1498	1700			1498	1498	1498	1498	1700	0	0	1498	1498	1498	1498	1700	0	0	1498	1498	1498	1498	1700	0	0	1498	1498	1498	1498	1700	0	0	1498	1498		
2006	1514	1514	1700			1514	1514	1514	1514	1700	0	0	1514	1514	1514	1514	1700	0	0	1514	1514	1514	1514	1700	0	0	1514	1514	1514	1514	1700	0	0	1514	1514		
2007	1538	1538	1700			1538	1538	1538	1538	1700	0	0	1538	1538	1538	1538	1700	0	0	1538	1538	1538	1538	1700	0	0	1538	1538	1538	1538	1700	0	0	1538	1538		
2008	1534	1534	1700		1800	1534	1534	1534	1534	1700	0	1800	1534	1534	1534	1534	1700	0	1800	1534	1534	1534	1534	1700	0	1800	1534	1534	1534	1534	1700	0	1800	1534	1534		
2009	1548	1548	1700		1800	1548	1548	1548	1548	1700	0	1800	1548	1548	1548	1548	1700	0	1800	1548	1548	1548	1548	1700	0	1800	1548	1548	1548	1548	1700	0	1800	1548	1548		
2010	1560	1560	1700		1800	1560	1560	1560	1560	1700	0	1800	1560	1560	1560	1560	1700	0	1800	1560	1560	1560	1560	1700	0	1800	1560	1560	1560	1560	1700	0	1800	1560	1560		
2011	1562	1562	1700		1800	1562	1562	1562	1562	1700	0	1800	1562	1562	1562	1562	1700	0	1800	1562	1562	1562	1562	1700	0	1800	1562	1562	1562	1562	1700	0	1800	1562	1562		
2012	1580	1580	1700		1800	1580	1580	1580	1580	1700	0	1800	1580	1580	1580	1580	1700	0	1800	1580	1580	1580	1580	1700	0	1800	1580	1580	1580	1580	1700	0	1800	1580	1580		
2013	1573	1573	1700		1800	1573	1573	1573	1573	1700	0	1800	1573	1573	1573	1573	1700	0	1800	1573	1573	1573	1573	1700	0	1800	1573	1573	1573	1573	1700	0	1800	1573	1573		
2014	1574	1574	1700	1850	1800	1574	1574	1574	1574	1700	1850	1800	1574	1574	1574	1574	1700	1850	1800	1574	1574	1574	1574	1700	1850	1800	1574	1574	1574	1574	1700	1850	1800	1574	1574		
2015	1550	1550	1700	1850	1800	1550	1550	1550	1550	1700	1850	1800	1550	1550	1550	1550	1700	1850	1800	1550	1550	1550	1550	1700	1850	1800	1550	1550	1550	1550	1700	1850	1800	1550	1550		
2016	1550	1550	1700	1850	1800	1550	1550	1550	1550	1700	1850	1800	1550	1550	1550	1550	1700	1850	1800	1550	1550	1550	1550	1700	1850	1800	1550	1550	1550	1550	1700	1850	1800	1550	1550		
2017	1550	1550	1700	1850	1800	1550	1550	1550	1550	1700	1850	1800	1550	1550	1550	1550	1700	1850	1800	1550	1550	1550	1550	1700	1850	1800	1550	1550	1550	1550	1700	1850	1800	1550	1550		
2018	1550	1550	1700	1850	1800	1550	1550	1550	1550	1700	1850	1800	1550	1550	1550	1550	1700	1850	1800	1550	1550	1550	1550	1700	1850	1800	1550	1550	1550	1550	1700	1850	1800	1550	1550		
2019	1550	1550	1700	1850	1800	1550	1550	1550	1550	1700	1850	1800	1550	1550	1550	1550	1700	1850	1800	1550	1550	1550	1550	1700	1850	1800	1550	1550	1550	1550	1700	1850	1800	1550	1550		
2020	1550	1550	1700	1850	1800	1550	1550	1550	1550	1700	1850	1800	1550	1550	1550	1550	1700	1850	1800	1550	1550	1550	1550	1700	1850	1800	1550	1550	1550	1550	1700	1850	1800	1550	1550		
2021	1540	1540	1689	1887	1788	1540	1540	1550	1550	1700	1850	1800	1550	1550	1550	1550	1700	1850	1800	1550	1550	1550	1550	1700	1850	1800	1550	1550	1550	1550	1700	1850	1800	1550	1550		
2022	1530	1530	1678	1874	1776	1530	1530	1550	1550	1700	1850	1800	1550	1550	1550	1550	1700	1850	1800	1550	1550	1550	1550	1700	1850	1800	1550	1550	1550	1550	1700	1850	1800	1550	1550		
2023	1519	1519	1666	1862	1764	1519	1519	1550	1550	1700	1850	1800	1550	1550	1550	1550	1700	1850	1800	1550	1550	1550	1550	1700	1850	1800	1550	1550	1550	1550	1700	1850	1800	1550	1550		
2024	1509	1509	1655	1849	1752	1509	1509	1550	1550	1700	1850	1800	1550	1550	1550	1550	1700	1850	1800	1550	1550	1550	1550	1700	1850	1800	1550	1550	1550	1550	1700	1850	1800	1550	1550		
2025	1499	1499	1644	1836	1740	1499	1499	1550	1550	1700	1850	1800	1550	1550	1550	1550	1700	1850	1800	1550	1550	1550	1550	1700	1850	1800	1550	1550	1550	1550	1700	1850	1800	1550	1550		
2026	1488	1488	1632	1824	1728	1488	1488	1550	1550	1700	1850	1800	1550	1550	1550	1550	1700	1850	1800	1550	1550	1550	1550	1700	1850	1800	1550	1550	1550	1550	1700	1850	1800	1550	1550		
2027	1478	1478	1621	1811	1716	1478	1478	1550	1550	1700	1850	1800	1550	1550	1550	1550	1700	1850	1800	1550	1550	1550	1550	1700	1850	1800	1550	1550	1550	1550	1700	1850	1800	1550	1550		
2028	1468	1468	1610	1798	1704	1468	1468	1550	1550	1700	1850	1800	1550	1550	1550	1550	1700	1850	1800	1550	1550	1550	1550	1700	1850	1800	1550	1550	1550	1550	1700	1850	1800	1550	1550		
2029	1457	1457	1598	1786	1692	1457	1457	1550	1550	1700	1850	1800	1550	1550	1550	1550	1700	1850	1800	1550	1550	1550	1550	1700	1850	1800	1550	1550	1550	1550	1700	1850	1800	1550	1550		
2030	1447	1447	1587	1773	1680	1447	1447	1550	1550	1700	1850	1800	1550	1550	1550	1550	1700	1850	1800	1550	1550	1550	1550	1700	1850	1800	1550	1550	1550	1550	1700	1850	1800	1550	1550		
2031	1437	1437	1576	1760	1668	1437	1437	1550	1550	1700	1850	1800	1550	1550	1550	1550	1700	1850	1800	1550	1550	1550	1550	1700	1850	1800	1550	1550	1550	1550	1700	1850	1800	1550	1550		
2032	1426	1426	1564	1748	1656	1426	1426	1550	1550	1700	1850	1800	1550	1550	1550	1550	1700	1850	1800	1550	1550	1550	1550	1700	1850	1800	1550	1550	1550	1550	1700	1850	1800	1550	1550		
2033	1416	1416	1553	1735	1644	1416	1416	1550	1550	1700	1850	1800	1550	1550	1550	1550	1700	1850	1800	1550	1550	1550	1550	1700	1850	1800	1550	1550	1550	1550	1700	1850	1800	1550	1550		
2034	1406	1406	1542	1722	1632	1406	1406	1550	1550	1700	1850	1800	1550	1550	1550	1550	1700	1850	1800	1550	1550	1550	1550	1700	1850	1800	1550	1550	1550	1550	1700	1850	1800	1550	1550		
2035	1395	1395	1530	1665	1620	1395	1395	1550	1550	1700	1850	1800	1550	1550	1550	1550	1700	1850	1800	1550	1550	1550	1550	1700	1850	1800	1550	1550	1550	1550	1700	1850	1800	1550	1550	1	0.9
2036	1395	1395	1530	1665	1620	1395	1395	1550	1550	1700	1850	1800	1550	1550	1550	1550	1700	1850	1800	1550	1550	1550	1550	1700	1850	1800	1550	1550	1550	1550	1700	1850	1800	1550	1550		
2037	1395	1395	1530	1665	1620	1395	1395	1550	1550	1700	1850	1800	1550	1550	1550	1550	1700	1850	1800	1550	1550	1550	1550	1700	1850	1800	1550	1550	1550	1550	1700	1850	1800	1550	1550		
2038	1395	1395	1530	1665	1620	1395	1395	1550	1550	1700	1850	1800	1550	1550	1550	1550	1700	1850	1800	1550	1550	1550	1550	1700	1850	1800	1550	1550	1550	1550	1700	1850	1800	1550	1550		
2039	1395	1395	1530	1665	1620	1395	1395	1550	1550	1700	1850	1800	1550	1550	1550	1550	1700	1850	1800	1550	1550	1550	1550	1700	1850	1800	1550	1550	1550	1550	1700	1850	1800	1550	1550		
2040	1395	1395	1530	1665	1620	1395	1395	1550	1550	1700	1850	1800	1550	1550	1550	1550	1700	1850	1800	1550	1550	1550	1550	1700	1850	1800	1550	1550	1550	1550	1700	1850	1800	1550	1550		
2041	1395	1395	1530	1665	1620	1395	1395	1550	1550	1700	1850	1800	1550	1550	1550	1550	1700	1850	1800	1550	1550	1550	1550	1700	1850	1800	1550	1550	1550	1550	1700	1850	1800	1550	1550		
2042	1395	1395	1530	1665	1620	1395	1395	1550	1550	1700	1850	1800	1550	1550	1550	1550	1700	1850	1800	1550	1550	1550	1550	1700	1850	1800	1550	1550	1550	1550	1700	1850	1800	1550	1550		
2043	1395	1395	1530	1665	1620	1395	1395	1550	1550	1700	1850	1800	1550	1550	1550	1550	1700	1850	1800	1550	1550	1550	1550	1700	1850	1800	1550	1550	1550	1550	1700	1850	1800	1550	1550		
2044	1395	1395	1530	1665	1620	1395	1395	1550	1550	1700	1850	1800	1550	1550	1550	1550	1700	1850	1800	1550	1550	1550	1550	1700	1850	1800	1550	1550	1550	1550	1700	1850	1800	1550	1550		
2045	1395	1395	1530	1665	1620	1395	1395	1550	1550	1700	1850	1800	1550	1550	1550	1550	1700	1850	1800	1550	1550	1550	1550	1700	1850	1800	1550	1550	1550	1550	1700	1850	1800	1550	1550		
2046	1395	1395	1530	1665	1620	1395	1395	1550	1550	1700	1850	1800	1550	1550	1550	1550	1700	1850	1800	1550	1550	1550	1550	1700	1850	1800	1550	1550	1550	1550	1700	1850	1800	1550	1550		
2047	1395	1395	1530	1665	1620	1395	1395	1550	1550	1700	1850	1800	1550	1550	1550	1550	1700	1850	1800	1550	1550	1550	1550	1700	1850	1800	1550	1550	1550	1550	1700	1850	1800	1550	1550		
2048	1395	1395	1530	1665	1620	1395	1395	1550	1550	1700	1850	1800	1550	1550	1550	1550	1700	1850	1800	1550	1550	1550	1550	1700	1850	1800	1550	1550	1550	1550	1700	1850	1800	1550	1550		
2049	1395	1395	1530	1665	1620	1395	1395	1550	1550	1700	1850	1800	1550	1550	1550	1550	1700	1850	1800	1550	1550	1550	1550	1700	1850	1800	1550	1550	1550	1550	1700	1850	1800	1550	1550		
2050	1395	1395	1530	1665	1620	1395	1395	1550	1550	1700	1850	1800	1550	1550	1550	1550	1700	1850	1800	1550	1550	1550	1550	1700	1850	1800	1550	1550	1550	1550	1700	1850	1800	1550	1550		
2051	1395	1395	1530	1665	1620	1395	1395	1550	1550	1700	1850	1800	1550	1550	1550	1550	1700	1850	1800	1550	1550	1550	1550	1700	1850	1800	1550	1550	1550	1550	1700	1850	1800	1550	1550		
2052	1395	1395	1530	1665	1620	1395	1395	1550	1550	1700	1850	1800	1550	1550	1550	1550	1700	1850	1800	1550	1550	1550	1550	1700	1850	1800	1550	1550	1550	1550	1700	1850	1800	1550	1550		
2053	1395	1395	1530	1665	1620	1395	1395	1550	1550	1700	1850	1800	1550	1550	1550	1550	1700	1850	1800	1550	1550	1550	1550	1700	1850	1800	1550	1550	1550	1550	1700	1850	1800	1550	1550		
2054	1395	1395	1530	1665	1620	1395	1395	1550	1550	1700	1850	1800	1550	1550	1550	1550	1700	1850	1800	1550	1550	1550	1550	1700	1850	1800	1550	1550	1550	1550	1700	1850	1800	1550	1550		
2055	1395	1395	1530	1665	1620	1395	1395	1550	1550	1700	1850	1800	1550	1550	1550	1550	1700	1850	1800	1550	1550	1550	1550	1700	1850	1800	1550	1550	1550	1550	1700	1850	1800	1550	1550		
2056	1395	1395	1530	1665	1620	1395	1395	1550	1550	1700	1850	1800	1550	1550	1550	1550	1700	1850	1800	1550	1550	1550	1550	1700	1850	1800	1550	1550	1550	1550	1700	1850	1800	1550	1550		
2057	1395	1395	1530	1665	1620	1395	1395	1550	1550	1700	1850	1800	1550	1550	1550	1550	1700	1850	1800	1550	1550	1550	1550	1700	1850	1800	1550	1550	1550	1550	1700	1850	1800	1550	1550		
2058	1395	1395	1530	1665	1620	1395	1395	1550	1550	1700	1850	1800	1550	1550	1550	1550	1700	1850	1800	1550	1550	1550	1550	1700	1850	1800	1550	1550	1550	1550	1700	1850	1800	1550	1550		
2059	1395	1395	1530	1665	1620	1395	1395	1550	1550	1700	1850	1800	1550	1550	1550	1550	1700	1850	1800	1550	1550	1550	1550	1700	1850	1800	1550	1550	1550	1550	1700	1850	1800	1550	1550		
2060	1395	1395	1530	1665	1620	1395	1395	1550	1550	1700	1850	1800	1550	1550	1550	1550	1700	1850	1800	1550	1550	1550	1550	1700	1850	1800	1550	1550	1550	1550	1700	1850	1800	1550	1550		
2061	1395	1395	1530	1665	1620	1395	1395	1550	1550	1700	1850	1800	1550	1550	1550	1550	1700	1850	1800	1550	1550	1550	1550	1700	1850	1800	1550	1550	1550	1550	1700	1850	1800	1550	1550		
2062	1395	1395	1530	1665	1620	1395	1395	1550	1550	1700	1850	1800	1550	1550	1550	1550	1700	1850	1800	1550	1550	1550	1550	1700	1850	1800	1550	1550	1550	1550	1700	1850	1800	1550	1550		
2063	1395	1395	1530	1665	1620	1395	1395	1550	1550	1700	1850	1800	1550	1550	1550	1550	1700	1850	1800	1550	1550	1550	1550	1700	1850	1800	1550	1550	1550	1550	1700	1850	1800	1550	1550		
2064	1395	1395	1530	1665	1620	1395	1395	1550	1550	1700	1850	1800	1550	1550	1550	1550	1700	1850	1800	1550	1550	1550	1550	1700	1850	1800	1550	1550	1550	1550	1700	1850	1800	1550	1550		
2065	1395	1395	1530	1665	1620	1395	1395	1550	1550	1700	1850	1800	1550	1550	1550	1550	1700	1850	1800	1550	1550	1550	1550	1700	1850	1800	1550	1550	1550	1550	1700	1850	1800	1550	1550		
2066	1395	1395	1530	1665	1620	1395	1395	1550	1550	1700	1850	1800	1550	1550	1550	1550	1700	1850	1800	1550	1550	1550	1550	1700	1850	1800	1550	1550	1550	1550	1700	1850	1800	1550	1550		
2067	1395	1395	1530	1665	1620	1395	1395	1550	1550	1700	1850	1800	1550	1550	1550	1550	1700	1850	1800	1550	1550	1550	1550	1700	1850	1800	1550	1550	1550	1550	1700	1850	1800	1550	1550		
2068	1395	1395	1530	1665	1620	1395	1395	1550	1550	1700	1850	1800	1550	1550	1550	1550	1700	1850	1800	1550	1550	1550	1550	1700	1850	1800	1550	1550	1550	1550	1700	1850	1800	1550	1550		
2069	1395	1395	1530	1665	1620	1395	1395	1550	1550	1700	1850	1800	1550	1550	1550	1550	1700	1850	1800	1550	1550	1550	1550	1700	1850	1800	1550	1550	1550	1550	1700	1850	1800	1550	1550		
2070	1395	1395	1530	1665	1620	1395	1395	1550	1550	1700	1850	1800	1550	1550	1550	1550	1700	1850	1800	1550	1550	1550	1550	1700	1850	1800	1550	1550	1550	1550	1700	1850	1800	1550	1550		
2071	1395	1395	1530	1665	1620	1395	1395	1550	1550	1700	1850	1800	1550	1550	1550	1550	1700	1850	1800	1550	1550	1550	1550	1700	1850	1800	1550	1550	1550	1550	1700	1850	1800	1550	1550		
2072	1395	1395	1530	1665	1620	1395	1395	1550	1550	1700	1850	1800	1550	1550	1550	1550	1700	1850	1800	1550	1550	1550	1550	1700	1850	1800	1550	1550	1550	1550	1700	1850	1800	1550	1550		
2073	1395	1395	1530	1665	1620	1395	1395	1550	1550	1700	1850	1800	1550	1550	1550	1550	1700	1850	1800	1550	1550	1550	1550	1700	1850	1800	1550	1550	1550	1550	1700	1850	1800	1550	1550		
2074	1395	1395	1530	1665	1620	1395	1395	1550	1550	1700	1850	1800	1550	1550	1550	1550	1700	1850	1800	1550	1550	1550	1550	1700	1850	1800	1550	1550	1550	1550	1700	1850	1800	1550	1550		
2075	1395	1395	1530	1665	1620	1395	1395	1550	1550	1700	1850	1800	1550	1550	1550	1550	1700	1850	1800	1550	1550	1550	1550	1700	1850	1800	1550	1550	1550	1550	1700	1850	1800	1550	1550		
2076	1395	1395	1530	1665	1620	1395	1395	1550	1550	1700	1850	1800	1550	1550	1550	1550	1700	1850	1800	1550	1550	1550	1550	1700	1850	1800	1550	1550	1550	1550	1700	1850	1800	1550	1550		
2077	1395	1395	1530	1665	1620	1395	1395	1550	1550	1700	1850	1800	1550	1550	1550	1550	1700	1850	1800	1550	1550	1550	1550	1700	1850	1800	1550	1550	1550	1550	1700	1850	1800	1550	1550		
2078	1395	1395	1530	1665	1620	1395	1395	1550	1550	1700	1850	1800	1550	1550	1550	1550	1700	1850	1800	1550	1550	1550	1550	1700	1850	1800	1550	1550	1550	1550	1700	1850	1800	1550	1550		
2079	1395	1395	1530	1665	1620	1395	1395	1550	1550	1700	1850	1800	1550	1550	1550	1550	1700	1850	1800	1550	1550	1550	1550	1700	1850	1800	1550	1550	1550	1550	1700	1850	1800	1550	1550		
2080	1395	1395	1530	1665	1620	1395	1395	1550	1550	1700	1850	1800	1550	1550	1550	1550	1700	1850	1800	1550	1550	1550	1550	1700	1850	1800	1550	1550	1550	1550	1700	1850	1800	1550	1550		
2081	1395	1395	1530	1665	1620	1395	1395	1550	1550	1700	1850	1800	1550	1550	1550	1550	1700	1850	1800	1550	1550	1550	1550	1700	1850	1800	1550	1550	1550	1550	1700	1850	1800	1550	1550		
2082	1395	1395	1530	1665	1620	1395	1395	1550	1550	1700	1850	1800	1550	1550	1550	1550	1700	1850	1800	1550	1550	1550	1550	1700	1850	1800	1550	1550	1550	1550	1700	1850	1800	1550	1550		
2083	1395	1395	1530	1665	1620	1395	1395	1550	1550	1700	1850	1800	1550	1550	1550	1550	1700	1850	1800	1550	1550	1550	1550	1700	1850	1800	1550	1550	1550	1550	1700	1850	1800	1550	1550		
2084	1395	1395	1530	1665	1620	1395	1395	1550	1550	1700	1850	1800	1550	1550	1550	1550	1700	1850	1800	1550	1550	1550	1550	1700	1850	1800	1550	1550	1550	1550	1700	1850	1800	1550	1550		
2085	1395	1395	1530	1665	1620	1395	1395	1550	1550	1700	1850	1800	1550	1550	1550	1550	1700	1850	1800	1550	1550	1550	1550	1700	1850	1800	1550	1550	1550	1550	1700	1850	1800	1550	1550		
2086	1395	1395	1530	1665	1620	1395	1395	1550	1550	1700	1850	1800	1550	1550	1550	1550	1700	1850	1800	1550	1550	1550	1550	1700	1850	1800	1550	1550	1550	1550	1700	1850	1800	1550	1550		
2087	1395	1395	1530	1665	1620	1395	1395	1550	1550	1700	1850	1800	1550	1550	1550	1550	1700	1850	1800	1550	1550	1550	1550	1700	1850	1800	1550	1550	1550	1550	1700	1850	1800	1550	1550		
2088	1395	1395	1530	1665	1620	1395	1395	1550	1550	1700	1850	1800	1550	1550	1550	1550	1700	1850	1800	1550	1550	1550	1550	1700	1850	1800	1550	1550	1550	1550	1700	1850	1800	1550	1550		
2089	1395	1395	1530	1665	1620	1395	1395	1550	1550	1700	1850	1800	1550	1550	1550	1550	1700	1850	1800	1550	1550	1550	1550	1700	1850	1800	1550	1550	1550	1550	1700	1850	1800	1550	1550		
2090	1395	1395	1530	1665	1620	1395	1395	1550	1550	1700	1850	1800	1550	1550	1550	1550	1700	1850	1800	1550	1550	1550	1550	1700	1850	1800	1550	1550	1550	1550	1700	1850	1800	1550	1550		
2091	1395	1395	1530	1665	1620	1395	1395	1550	1550	1700	1850	1800	1550	1550	1550	1550	1700	1850	1800	1550	1550	1550	1550	1700	1850	1800	1550	1550	1550	1550	1700	1850	1800	1550	1550		
2092	1395	1395	1530	1665	1620	1395	1395	1550	1550	1700	1850	1800	1550	1550	1550	1550	1700	1850	1800	1550	1550	1550	1550	1700	1850	1800	1550	1550	1550	1550	1700	1850	1800	1550	1550		
2093	1395	1395	1530	1665	1620	1395	1395	1550	1550	1700	1850	1800	1550	1550	1550	1550	1700	1850	1800	1550	1550	1550	1550	1700	1850	1800	1550	1550	1550	1550	1700	1850	1800	1550	1550		
2094	1395	1395	1530	1665	1620	1395	1395	1550	1550	1700	1850	1800	1550	1550	1550	1550	1700	1850	1800	1550	1550	1550	1550	1700	1850	1800	1550	1550	1550	1550	1700	1850	1800	1550	1550		
2095	1395	1395	1530	1665	1620	1395	1395	1550	1550	1700	1850	1800	1550	1550	1550	1550	1700	1850	1800	1550	1550	1550	1550	1700	1850	1800	1550	1550	1550	1550	1700	1850	1800	1550	1550		
2096	1395	1395	1530	1665	1620	1395	1395	1550	1550	1700	1850	1800	1550	1550	1550	1550	1700	1850	1800	1550	1550	1550	1550	1700	1850	1800	1550	1550	1550	1550	1700	1850	1800	1550	1550		
2097	1395	1395	1530	1665	1620	1395	1395	1550	1550	1700	1850	1800	1550	1550	1550	1550	1700	1850	1800	1550	1550	1550	1550	1700	1850	1800	1550	1550	1550	1550	1700	1850	1800	1550	1550		
2098	1395	1395	1530	1665	1620	1395	1395	1550	1550	1700	1850	1800	1550	1550	1550	1550	1700	1850	1800	1550	1550	1550	1550	1700	1850	1800	1550	1550	1550	1550	1700	1850	1800	1550	1550		
